# rho(1/km)	    A	 veqmax(km/h)	 Qeqmax(1/h)	 veqmin(km/h)
0.0	  0.0080	 7.20	 	 0.00 	 7.20  
0.4	  0.0080	 7.20	 	 3.10 	 7.20  
0.9	  0.0080	 7.20	 	 6.20 	 7.20  
1.3	  0.0080	 7.20	 	 9.30 	 7.20  
1.7	  0.0080	 7.20	 	 12.40 	 7.20  
2.2	  0.0080	 7.20	 	 15.49 	 7.20  
2.6	  0.0080	 7.20	 	 18.59 	 7.20  
3.0	  0.0080	 7.20	 	 21.69 	 7.20  
3.4	  0.0081	 7.20	 	 24.79 	 7.20  
3.9	  0.0081	 7.20	 	 27.89 	 7.20  
4.3	  0.0081	 7.20	 	 30.99 	 7.20  
4.7	  0.0081	 7.20	 	 34.09 	 7.20  
5.2	  0.0081	 7.20	 	 37.19 	 7.20  
5.6	  0.0081	 7.20	 	 40.29 	 7.20  
6.0	  0.0082	 7.20	 	 43.38 	 7.20  
6.5	  0.0082	 7.20	 	 46.48 	 7.20  
6.9	  0.0082	 7.20	 	 49.58 	 7.20  
7.3	  0.0083	 7.20	 	 52.68 	 7.20  
7.7	  0.0083	 7.20	 	 55.78 	 7.20  
8.2	  0.0084	 7.20	 	 58.88 	 7.20  
8.6	  0.0085	 7.20	 	 61.98 	 7.20  
9.0	  0.0086	 7.20	 	 65.08 	 7.20  
9.5	  0.0087	 7.20	 	 68.18 	 7.20  
9.9	  0.0088	 7.20	 	 71.27 	 7.20  
10.3	  0.0089	 7.20	 	 74.37 	 7.20  
10.8	  0.0091	 7.20	 	 77.47 	 7.20  
11.2	  0.0093	 7.20	 	 80.57 	 7.20  
11.6	  0.0096	 7.20	 	 83.67 	 7.20  
12.1	  0.0099	 7.20	 	 86.77 	 7.20  
12.5	  0.0102	 7.20	 	 89.87 	 7.20  
12.9	  0.0106	 7.20	 	 92.97 	 7.20  
13.3	  0.0111	 7.20	 	 96.06 	 7.20  
13.8	  0.0116	 7.20	 	 99.16 	 7.20  
14.2	  0.0122	 7.20	 	 102.26 	 7.20  
14.6	  0.0129	 7.20	 	 105.36 	 7.20  
15.1	  0.0136	 7.20	 	 108.46 	 7.20  
15.5	  0.0145	 7.20	 	 111.56 	 7.20  
15.9	  0.0155	 7.20	 	 114.66 	 7.20  
16.4	  0.0165	 7.20	 	 117.76 	 7.20  
16.8	  0.0176	 7.20	 	 120.86 	 7.20  
17.2	  0.0188	 7.03	 	 121.03 	 7.20  
17.6	  0.0201	 6.78	 	 119.63 	 7.20  
18.1	  0.0214	 6.54	 	 118.23 	 7.20  
18.5	  0.0227	 6.31	 	 116.83 	 7.20  
18.9	  0.0241	 6.10	 	 115.43 	 7.20  
19.4	  0.0254	 5.89	 	 114.03 	 7.20  
19.8	  0.0267	 5.69	 	 112.63 	 7.20  
20.2	  0.0279	 5.50	 	 111.23 	 7.20  
20.7	  0.0291	 5.32	 	 109.82 	 7.20  
21.1	  0.0301	 5.14	 	 108.42 	 7.20  
21.5	  0.0311	 4.97	 	 107.02 	 7.20  
22.0	  0.0320	 4.81	 	 105.62 	 7.20  
22.4	  0.0328	 4.66	 	 104.22 	 7.20  
22.8	  0.0336	 4.51	 	 102.82 	 7.20  
23.2	  0.0342	 4.36	 	 101.42 	 7.20  
23.7	  0.0347	 4.23	 	 100.02 	 7.20  
24.1	  0.0352	 4.09	 	 98.61 	 7.20  
24.5	  0.0356	 3.96	 	 97.21 	 7.20  
25.0	  0.0360	 3.84	 	 95.81 	 7.20  
25.4	  0.0363	 3.72	 	 94.41 	 7.20  
25.8	  0.0366	 3.60	 	 93.01 	 7.20  
26.3	  0.0368	 3.49	 	 91.61 	 7.20  
26.7	  0.0370	 3.38	 	 90.21 	 7.20  
27.1	  0.0372	 3.28	 	 88.81 	 7.20  
27.5	  0.0373	 3.17	 	 87.41 	 7.20  
28.0	  0.0374	 3.07	 	 86.00 	 7.20  
28.4	  0.0375	 2.98	 	 84.60 	 7.20  
28.8	  0.0376	 2.89	 	 83.20 	 7.20  
29.3	  0.0376	 2.79	 	 81.80 	 7.20  
29.7	  0.0377	 2.71	 	 80.40 	 7.20  
30.1	  0.0378	 2.62	 	 79.00 	 7.20  
30.6	  0.0378	 2.54	 	 77.60 	 7.20  
31.0	  0.0378	 2.46	 	 76.20 	 7.20  
31.4	  0.0379	 2.38	 	 74.80 	 7.20  
31.8	  0.0379	 2.30	 	 73.39 	 7.20  
32.3	  0.0379	 2.23	 	 71.99 	 7.20  
32.7	  0.0379	 2.16	 	 70.59 	 7.20  
33.1	  0.0379	 2.09	 	 69.19 	 7.20  
33.6	  0.0379	 2.02	 	 67.79 	 7.20  
34.0	  0.0379	 1.95	 	 66.39 	 7.20  
34.4	  0.0380	 1.89	 	 64.99 	 7.20  
34.9	  0.0380	 1.82	 	 63.59 	 7.20  
35.3	  0.0380	 1.76	 	 62.19 	 7.20  
35.7	  0.0380	 1.70	 	 60.78 	 7.20  
36.2	  0.0380	 1.64	 	 59.38 	 7.20  
36.6	  0.0380	 1.58	 	 57.98 	 7.20  
37.0	  0.0380	 1.53	 	 56.58 	 7.20  
37.4	  0.0380	 1.47	 	 55.18 	 7.20  
37.9	  0.0380	 1.42	 	 53.78 	 7.20  
38.3	  0.0380	 1.37	 	 52.38 	 7.20  
38.7	  0.0380	 1.32	 	 50.98 	 7.20  
39.2	  0.0380	 1.27	 	 49.58 	 7.20  
39.6	  0.0380	 1.22	 	 48.17 	 7.20  
40.0	  0.0380	 1.17	 	 46.77 	 7.20  
40.5	  0.0380	 1.12	 	 45.37 	 7.20  
40.9	  0.0380	 1.08	 	 43.97 	 7.20  
41.3	  0.0380	 1.03	 	 42.57 	 7.20  
41.7	  0.0380	 0.99	 	 41.17 	 7.20  
42.2	  0.0380	 0.94	 	 39.77 	 7.20  
42.6	  0.0380	 0.90	 	 38.37 	 6.93  
43.0	  0.0380	 0.86	 	 36.97 	 6.61  
43.5	  0.0380	 0.82	 	 35.56 	 6.29  
43.9	  0.0380	 0.78	 	 34.16 	 5.99  
44.3	  0.0380	 0.74	 	 32.76 	 5.68  
44.8	  0.0380	 0.70	 	 31.36 	 5.39  
45.2	  0.0380	 0.66	 	 29.96 	 5.10  
45.6	  0.0380	 0.63	 	 28.56 	 4.82  
46.1	  0.0380	 0.59	 	 27.16 	 4.54  
46.5	  0.0380	 0.55	 	 25.76 	 4.26  
46.9	  0.0380	 0.52	 	 24.35 	 3.99  
47.3	  0.0380	 0.48	 	 22.95 	 3.73  
47.8	  0.0380	 0.45	 	 21.55 	 3.47  
48.2	  0.0380	 0.42	 	 20.15 	 3.22  
48.6	  0.0380	 0.39	 	 18.75 	 2.97  
49.1	  0.0380	 0.35	 	 17.35 	 2.72  
49.5	  0.0380	 0.32	 	 15.95 	 2.48  
49.9	  0.0380	 0.29	 	 14.55 	 2.24  
50.4	  0.0380	 0.26	 	 13.15 	 2.01  
50.8	  0.0380	 0.23	 	 11.74 	 1.78  
51.2	  0.0380	 0.20	 	 10.34 	 1.55  
51.6	  0.0380	 0.17	 	 8.94 	 1.33  
52.1	  0.0380	 0.14	 	 7.54 	 1.11  
52.5	  0.0380	 0.12	 	 6.14 	 0.90  
52.9	  0.0380	 0.09	 	 4.74 	 0.69  
53.4	  0.0380	 0.06	 	 3.34 	 0.48  
53.8	  0.0380	 0.04	 	 1.94 	 0.28  
54.2	  0.0380	 0.01	 	 0.54 	 0.08  
54.7	  0.0380	 0.00	 	 0.00 	 0.00  
55.1	  0.0380	 0.00	 	 0.00 	 0.00  
55.5	  0.0380	 0.00	 	 0.00 	 0.00  
56.0	  0.0380	 0.00	 	 0.00 	 0.00  
56.4	  0.0380	 0.00	 	 0.00 	 0.00  
56.8	  0.0380	 0.00	 	 0.00 	 0.00  
57.2	  0.0380	 0.00	 	 0.00 	 0.00  
57.7	  0.0380	 0.00	 	 0.00 	 0.00  
58.1	  0.0380	 0.00	 	 0.00 	 0.00  
58.5	  0.0380	 0.00	 	 0.00 	 0.00  
59.0	  0.0380	 0.00	 	 0.00 	 0.00  
59.4	  0.0380	 0.00	 	 0.00 	 0.00  
59.8	  0.0380	 0.00	 	 0.00 	 0.00  
60.3	  0.0380	 0.00	 	 0.00 	 0.00  
60.7	  0.0380	 0.00	 	 0.00 	 0.00  
61.1	  0.0380	 0.00	 	 0.00 	 0.00  
61.5	  0.0380	 0.00	 	 0.00 	 0.00  
62.0	  0.0380	 0.00	 	 0.00 	 0.00  
62.4	  0.0380	 0.00	 	 0.00 	 0.00  
62.8	  0.0380	 0.00	 	 0.00 	 0.00  
63.3	  0.0380	 0.00	 	 0.00 	 0.00  
63.7	  0.0380	 0.00	 	 0.00 	 0.00  
64.1	  0.0380	 0.00	 	 0.00 	 0.00  
64.6	  0.0380	 0.00	 	 0.00 	 0.00  
65.0	  0.0380	 0.00	 	 0.00 	 0.00  
65.4	  0.0380	 0.00	 	 0.00 	 0.00  
65.9	  0.0380	 0.00	 	 0.00 	 0.00  
66.3	  0.0380	 0.00	 	 0.00 	 0.00  
66.7	  0.0380	 0.00	 	 0.00 	 0.00  
67.1	  0.0380	 0.00	 	 0.00 	 0.00  
67.6	  0.0380	 0.00	 	 0.00 	 0.00  
68.0	  0.0380	 0.00	 	 0.00 	 0.00  
68.4	  0.0380	 0.00	 	 0.00 	 0.00  
68.9	  0.0380	 0.00	 	 0.00 	 0.00  
